[SUMMARY]
Software Information
Software Name:	UVProbe
Version:	2.43
Mode:	Normal Mode

Data Information
Data is:	Original
Analyst:	
Date/Time:	12.02.2018 16:38:29
Comments:	

Instrument Information
Instrument Name:	UV-3101PC
Instrument Type:	UV-3100PC Series
Model (S/N):	UV-3101PC ( 28K00308 )

[METHOD]
[Measurement Properties]
Wavelength Range (nm.):	300,0000 to 2500,0000
Scan Speed:	Slow
Sampling Interval:	2,0
Auto Sampling Interval:	Disabled
Scan Mode:	Auto

[Sample Preparation Properties]
Weight:	
Volume:	
Dilution:	
Path Length:	
Additional Information:	

[Instrument Properties]
Instrument Type:	UV-3100PC Series
Measuring Mode:	Transmittance
Slit Width:	5,0 nm
Light Source Change Wavelength:	282,0 nm
Detector Change Wavelength:	810,0 nm
S/R Exchange:	Normal
Detector Lock:	Auto
Slit Program:	Normal

[Attachment Properties]
Attachment:	None

[Operation]
Threshold:	1,0000000
Points:	1
InterPolate:	Disabled
Average:	Disabled

[DATA]
Wavelength	Data
300.0	87.482
302.0	85.474
304.0	85.289
306.0	85.457
308.0	85.616
310.0	85.854
312.0	86.075
314.0	86.134
316.0	86.003
318.0	85.863
320.0	86.105
322.0	86.147
324.0	86.104
326.0	86.382
328.0	86.383
330.0	86.436
332.0	86.609
334.0	86.752
336.0	86.992
338.0	87.140
340.0	87.112
342.0	87.132
344.0	87.225
346.0	87.175
348.0	87.241
350.0	87.387
352.0	87.386
354.0	87.421
356.0	87.518
358.0	87.663
360.0	87.849
362.0	87.866
364.0	87.891
366.0	88.036
368.0	88.084
370.0	88.126
372.0	88.237
374.0	88.303
376.0	88.455
378.0	88.521
380.0	88.437
382.0	88.391
384.0	88.356
386.0	88.405
388.0	88.525
390.0	88.695
392.0	88.751
394.0	88.792
396.0	88.855
398.0	88.878
400.0	88.950
402.0	89.006
404.0	89.105
406.0	89.137
408.0	89.079
410.0	89.139
412.0	89.235
414.0	89.264
416.0	89.282
418.0	89.297
420.0	89.383
422.0	89.424
424.0	89.354
426.0	89.403
428.0	89.447
430.0	89.491
432.0	89.594
434.0	89.647
436.0	89.673
438.0	89.697
440.0	89.751
442.0	89.757
444.0	89.775
446.0	89.847
448.0	89.890
450.0	89.868
452.0	89.917
454.0	89.969
456.0	90.024
458.0	90.024
460.0	90.007
462.0	90.092
464.0	90.163
466.0	90.201
468.0	90.216
470.0	90.198
472.0	90.230
474.0	90.279
476.0	90.273
478.0	90.326
480.0	90.367
482.0	90.323
484.0	90.321
486.0	90.450
488.0	90.465
490.0	90.465
492.0	90.536
494.0	90.565
496.0	90.578
498.0	90.599
500.0	90.611
502.0	90.613
504.0	90.596
506.0	90.634
508.0	90.683
510.0	90.651
512.0	90.703
514.0	90.738
516.0	90.785
518.0	90.883
520.0	90.871
522.0	90.889
524.0	90.938
526.0	90.941
528.0	90.958
530.0	90.942
532.0	90.948
534.0	90.994
536.0	91.035
538.0	91.052
540.0	91.083
542.0	91.136
544.0	91.188
546.0	91.220
548.0	91.212
550.0	91.200
552.0	91.257
554.0	91.312
556.0	91.316
558.0	91.341
560.0	91.333
562.0	91.307
564.0	91.272
566.0	91.270
568.0	91.350
570.0	91.330
572.0	91.299
574.0	91.388
576.0	91.431
578.0	91.422
580.0	91.422
582.0	91.396
584.0	91.414
586.0	91.458
588.0	91.446
590.0	91.408
592.0	91.434
594.0	91.505
596.0	91.513
598.0	91.510
600.0	91.501
602.0	91.519
604.0	91.568
606.0	91.595
608.0	91.580
610.0	91.608
612.0	91.649
614.0	91.634
616.0	91.641
618.0	91.689
620.0	91.708
622.0	91.705
624.0	91.719
626.0	91.710
628.0	91.710
630.0	91.757
632.0	91.776
634.0	91.779
636.0	91.786
638.0	91.762
640.0	91.757
642.0	91.811
644.0	91.856
646.0	91.869
648.0	91.823
650.0	91.835
652.0	91.925
654.0	91.972
656.0	91.930
658.0	91.891
660.0	91.913
662.0	91.956
664.0	91.997
666.0	91.982
668.0	91.933
670.0	91.924
672.0	91.965
674.0	92.018
676.0	92.050
678.0	92.010
680.0	92.024
682.0	92.093
684.0	92.056
686.0	92.047
688.0	92.142
690.0	92.159
692.0	92.085
694.0	92.068
696.0	92.159
698.0	92.183
700.0	92.178
702.0	92.165
704.0	92.154
706.0	92.203
708.0	92.186
710.0	92.154
712.0	92.139
714.0	92.139
716.0	92.134
718.0	92.099
720.0	92.155
722.0	92.192
724.0	92.151
726.0	92.140
728.0	92.139
730.0	92.122
732.0	92.120
734.0	92.146
736.0	92.101
738.0	92.058
740.0	92.136
742.0	92.155
744.0	92.188
746.0	92.220
748.0	92.216
750.0	92.192
752.0	92.166
754.0	92.120
756.0	92.111
758.0	92.267
760.0	92.328
762.0	92.325
764.0	92.322
766.0	92.305
768.0	92.326
770.0	92.416
772.0	92.433
774.0	92.374
776.0	92.406
778.0	92.343
780.0	92.261
782.0	92.357
784.0	92.401
786.0	92.378
788.0	92.447
790.0	92.471
792.0	92.441
794.0	92.471
796.0	92.433
798.0	92.387
800.0	92.448
802.0	92.490
804.0	92.589
806.0	92.607
808.0	92.644
810.0	92.538
812.0	91.884
814.0	91.420
816.0	91.829
818.0	91.989
820.0	91.866
822.0	91.628
824.0	91.345
826.0	91.286
828.0	90.820
830.0	90.918
832.0	91.150
834.0	91.495
836.0	91.396
838.0	91.185
840.0	91.940
842.0	92.172
844.0	91.963
846.0	92.328
848.0	91.638
850.0	91.188
852.0	91.814
854.0	91.949
856.0	92.245
858.0	91.821
860.0	91.667
862.0	92.023
864.0	92.241
866.0	91.815
868.0	91.289
870.0	91.805
872.0	92.061
874.0	91.873
876.0	91.792
878.0	91.699
880.0	91.818
882.0	92.004
884.0	91.846
886.0	91.615
888.0	91.612
890.0	91.548
892.0	91.420
894.0	91.493
896.0	91.469
898.0	91.409
900.0	91.557
902.0	91.687
904.0	91.632
906.0	91.640
908.0	91.670
910.0	91.631
912.0	91.647
914.0	91.566
916.0	91.560
918.0	91.554
920.0	91.533
922.0	91.635
924.0	91.557
926.0	91.223
928.0	91.266
930.0	91.299
932.0	91.209
934.0	91.255
936.0	91.245
938.0	91.040
940.0	90.779
942.0	90.756
944.0	90.694
946.0	90.591
948.0	90.273
950.0	89.957
952.0	89.706
954.0	89.519
956.0	89.365
958.0	89.120
960.0	88.849
962.0	88.580
964.0	88.544
966.0	88.622
968.0	88.521
970.0	88.448
972.0	88.516
974.0	88.399
976.0	88.277
978.0	88.338
980.0	88.397
982.0	88.454
984.0	88.414
986.0	88.441
988.0	88.499
990.0	88.557
992.0	88.773
994.0	88.829
996.0	88.817
998.0	88.937
1000.0	89.084
1002.0	89.165
1004.0	89.163
1006.0	89.259
1008.0	89.423
1010.0	89.420
1012.0	89.420
1014.0	89.639
1016.0	89.839
1018.0	89.972
1020.0	90.016
1022.0	89.977
1024.0	90.085
1026.0	90.283
1028.0	90.402
1030.0	90.482
1032.0	90.538
1034.0	90.585
1036.0	90.652
1038.0	90.750
1040.0	90.805
1042.0	90.840
1044.0	90.988
1046.0	91.096
1048.0	91.113
1050.0	91.161
1052.0	91.183
1054.0	91.168
1056.0	91.231
1058.0	91.237
1060.0	91.209
1062.0	91.290
1064.0	91.447
1066.0	91.388
1068.0	91.272
1070.0	91.290
1072.0	91.385
1074.0	91.461
1076.0	91.472
1078.0	91.446
1080.0	91.321
1082.0	91.348
1084.0	91.357
1086.0	91.286
1088.0	91.188
1090.0	91.095
1092.0	91.109
1094.0	91.104
1096.0	91.107
1098.0	91.019
1100.0	90.918
1102.0	90.985
1104.0	90.919
1106.0	90.735
1108.0	90.710
1110.0	90.764
1112.0	90.747
1114.0	90.704
1116.0	90.663
1118.0	90.578
1120.0	90.497
1122.0	90.413
1124.0	90.291
1126.0	90.132
1128.0	90.054
1130.0	89.789
1132.0	89.427
1134.0	89.169
1136.0	88.791
1138.0	88.342
1140.0	87.778
1142.0	87.091
1144.0	86.427
1146.0	85.893
1148.0	85.396
1150.0	84.845
1152.0	84.296
1154.0	83.928
1156.0	83.647
1158.0	83.389
1160.0	83.224
1162.0	83.138
1164.0	83.037
1166.0	82.892
1168.0	82.791
1170.0	82.790
1172.0	82.767
1174.0	82.726
1176.0	82.661
1178.0	82.530
1180.0	82.526
1182.0	82.533
1184.0	82.530
1186.0	82.481
1188.0	82.361
1190.0	82.288
1192.0	82.283
1194.0	82.297
1196.0	82.292
1198.0	82.278
1200.0	82.320
1202.0	82.410
1204.0	82.391
1206.0	82.323
1208.0	82.391
1210.0	82.466
1212.0	82.520
1214.0	82.549
1216.0	82.530
1218.0	82.574
1220.0	82.668
1222.0	82.800
1224.0	82.843
1226.0	82.828
1228.0	82.861
1230.0	82.939
1232.0	83.060
1234.0	83.099
1236.0	83.174
1238.0	83.224
1240.0	83.212
1242.0	83.250
1244.0	83.301
1246.0	83.411
1248.0	83.571
1250.0	83.614
1252.0	83.540
1254.0	83.542
1256.0	83.664
1258.0	83.820
1260.0	83.858
1262.0	83.786
1264.0	83.725
1266.0	83.794
1268.0	83.868
1270.0	83.865
1272.0	83.780
1274.0	83.763
1276.0	83.740
1278.0	83.617
1280.0	83.534
1282.0	83.458
1284.0	83.459
1286.0	83.351
1288.0	83.150
1290.0	82.956
1292.0	82.817
1294.0	82.756
1296.0	82.584
1298.0	82.307
1300.0	82.024
1302.0	81.744
1304.0	81.483
1306.0	81.178
1308.0	80.870
1310.0	80.634
1312.0	80.266
1314.0	79.739
1316.0	79.225
1318.0	78.894
1320.0	78.473
1322.0	77.934
1324.0	77.365
1326.0	76.770
1328.0	76.140
1330.0	75.450
1332.0	74.826
1334.0	74.248
1336.0	73.659
1338.0	72.957
1340.0	72.173
1342.0	71.504
1344.0	70.970
1346.0	70.390
1348.0	69.806
1350.0	69.131
1352.0	68.504
1354.0	67.981
1356.0	67.488
1358.0	66.991
1360.0	66.341
1362.0	65.747
1364.0	65.129
1366.0	64.343
1368.0	63.573
1370.0	62.614
1372.0	61.403
1374.0	60.048
1376.0	58.342
1378.0	56.422
1380.0	54.283
1382.0	51.726
1384.0	48.860
1386.0	45.718
1388.0	42.339
1390.0	38.766
1392.0	35.112
1394.0	31.520
1396.0	28.006
1398.0	24.695
1400.0	21.774
1402.0	19.167
1404.0	16.866
1406.0	14.925
1408.0	13.284
1410.0	11.873
1412.0	10.677
1414.0	9.682
1416.0	8.900
1418.0	8.298
1420.0	7.700
1422.0	7.109
1424.0	6.683
1426.0	6.335
1428.0	6.004
1430.0	5.737
1432.0	5.475
1434.0	5.298
1436.0	5.168
1438.0	4.985
1440.0	4.880
1442.0	4.790
1444.0	4.738
1446.0	4.669
1448.0	4.597
1450.0	4.597
1452.0	4.524
1454.0	4.483
1456.0	4.468
1458.0	4.509
1460.0	4.596
1462.0	4.691
1464.0	4.839
1466.0	4.910
1468.0	5.034
1470.0	5.290
1472.0	5.534
1474.0	5.791
1476.0	6.123
1478.0	6.464
1480.0	6.773
1482.0	7.152
1484.0	7.542
1486.0	7.986
1488.0	8.485
1490.0	8.916
1492.0	9.404
1494.0	9.932
1496.0	10.451
1498.0	11.053
1500.0	11.694
1502.0	12.340
1504.0	12.985
1506.0	13.620
1508.0	14.281
1510.0	14.941
1512.0	15.652
1514.0	16.429
1516.0	17.151
1518.0	17.857
1520.0	18.628
1522.0	19.354
1524.0	20.129
1526.0	20.975
1528.0	21.747
1530.0	22.479
1532.0	23.274
1534.0	24.124
1536.0	24.934
1538.0	25.708
1540.0	26.463
1542.0	27.272
1544.0	28.044
1546.0	28.746
1548.0	29.532
1550.0	30.336
1552.0	31.061
1554.0	31.828
1556.0	32.507
1558.0	33.125
1560.0	33.902
1562.0	34.669
1564.0	35.316
1566.0	35.966
1568.0	36.697
1570.0	37.323
1572.0	37.868
1574.0	38.498
1576.0	39.136
1578.0	39.807
1580.0	40.349
1582.0	40.781
1584.0	41.313
1586.0	41.838
1588.0	42.380
1590.0	42.892
1592.0	43.311
1594.0	43.813
1596.0	44.318
1598.0	44.791
1600.0	45.161
1602.0	45.528
1604.0	45.963
1606.0	46.281
1608.0	46.634
1610.0	47.018
1612.0	47.343
1614.0	47.707
1616.0	48.053
1618.0	48.334
1620.0	48.688
1622.0	48.991
1624.0	49.295
1626.0	49.622
1628.0	49.857
1630.0	50.117
1632.0	50.346
1634.0	50.594
1636.0	50.864
1638.0	51.054
1640.0	51.189
1642.0	51.399
1644.0	51.648
1646.0	51.863
1648.0	52.162
1650.0	52.370
1652.0	52.428
1654.0	52.632
1656.0	52.826
1658.0	52.898
1660.0	53.030
1662.0	53.159
1664.0	53.159
1666.0	53.206
1668.0	53.325
1670.0	53.416
1672.0	53.584
1674.0	53.732
1676.0	53.822
1678.0	53.773
1680.0	53.778
1682.0	53.828
1684.0	53.812
1686.0	53.873
1688.0	53.864
1690.0	53.860
1692.0	53.844
1694.0	53.699
1696.0	53.842
1698.0	53.995
1700.0	53.848
1702.0	53.569
1704.0	53.337
1706.0	53.255
1708.0	53.223
1710.0	53.139
1712.0	52.925
1714.0	52.773
1716.0	52.666
1718.0	52.477
1720.0	52.200
1722.0	51.930
1724.0	51.691
1726.0	51.445
1728.0	51.170
1730.0	50.862
1732.0	50.575
1734.0	50.163
1736.0	49.783
1738.0	49.515
1740.0	49.084
1742.0	48.639
1744.0	48.215
1746.0	47.813
1748.0	47.290
1750.0	46.664
1752.0	46.176
1754.0	45.795
1756.0	45.238
1758.0	44.611
1760.0	44.162
1762.0	43.732
1764.0	43.254
1766.0	42.682
1768.0	42.174
1770.0	41.714
1772.0	41.380
1774.0	41.092
1776.0	40.784
1778.0	40.437
1780.0	40.157
1782.0	39.998
1784.0	39.783
1786.0	39.594
1788.0	39.406
1790.0	39.272
1792.0	39.265
1794.0	39.261
1796.0	39.211
1798.0	39.236
1800.0	39.232
1802.0	39.154
1804.0	39.151
1806.0	39.264
1808.0	39.377
1810.0	39.339
1812.0	39.316
1814.0	39.337
1816.0	39.288
1818.0	39.230
1820.0	39.215
1822.0	39.278
1824.0	39.218
1826.0	39.066
1828.0	38.867
1830.0	38.680
1832.0	38.551
1834.0	38.313
1836.0	37.994
1838.0	37.643
1840.0	37.126
1842.0	36.555
1844.0	35.968
1846.0	35.297
1848.0	34.622
1850.0	33.792
1852.0	32.755
1854.0	31.538
1856.0	30.214
1858.0	28.802
1860.0	27.129
1862.0	25.304
1864.0	23.344
1866.0	21.227
1868.0	19.037
1870.0	16.588
1872.0	14.172
1874.0	11.827
1876.0	9.541
1878.0	7.416
1880.0	5.537
1882.0	3.998
1884.0	2.634
1886.0	1.752
1888.0	1.105
1890.0	0.650
1892.0	0.427
1894.0	0.221
1896.0	0.096
1898.0	-0.014
1900.0	-0.024
1902.0	-0.055
1904.0	-0.027
1906.0	0.055
1908.0	0.000
1910.0	0.012
1912.0	-0.015
1914.0	-0.055
1916.0	-0.043
1918.0	0.000
1920.0	-0.002
1922.0	-0.073
1924.0	-0.072
1926.0	-0.029
1928.0	0.027
1930.0	0.000
1932.0	-0.044
1934.0	-0.131
1936.0	-0.175
1938.0	-0.044
1940.0	0.150
1942.0	0.238
1944.0	0.044
1946.0	-0.165
1948.0	-0.061
1950.0	0.000
1952.0	-0.075
1954.0	-0.046
1956.0	-0.046
1958.0	-0.017
1960.0	0.044
1962.0	-0.015
1964.0	-0.031
1966.0	-0.047
1968.0	-0.078
1970.0	-0.032
1972.0	-0.015
1974.0	-0.047
1976.0	-0.157
1978.0	-0.079
1980.0	0.063
1982.0	0.063
1984.0	0.174
1986.0	0.047
1988.0	-0.047
1990.0	-0.047
1992.0	-0.017
1994.0	0.078
1996.0	0.063
1998.0	0.095
2000.0	0.095
2002.0	0.128
2004.0	0.128
2006.0	0.111
2008.0	0.096
2010.0	0.179
2012.0	0.293
2014.0	0.131
2016.0	0.148
2018.0	0.311
2020.0	0.278
2022.0	0.214
2024.0	0.279
2026.0	0.395
2028.0	0.429
2030.0	0.395
2032.0	0.493
2034.0	0.575
2036.0	0.594
2038.0	0.726
2040.0	0.728
2042.0	0.809
2044.0	0.923
2046.0	0.925
2048.0	1.027
2050.0	1.080
2052.0	1.183
2054.0	1.315
2056.0	1.382
2058.0	1.555
2060.0	1.593
2062.0	1.715
2064.0	1.889
2066.0	1.929
2068.0	2.090
2070.0	2.335
2072.0	2.451
2074.0	2.521
2076.0	2.774
2078.0	3.099
2080.0	3.226
2082.0	3.372
2084.0	3.607
2086.0	3.694
2088.0	3.929
2090.0	4.144
2092.0	4.298
2094.0	4.477
2096.0	4.706
2098.0	4.993
2100.0	5.191
2102.0	5.515
2104.0	5.862
2106.0	6.116
2108.0	6.306
2110.0	6.442
2112.0	6.718
2114.0	7.095
2116.0	7.254
2118.0	7.590
2120.0	7.986
2122.0	8.151
2124.0	8.386
2126.0	8.595
2128.0	8.882
2130.0	9.271
2132.0	9.480
2134.0	9.723
2136.0	9.929
2138.0	10.086
2140.0	10.321
2142.0	10.582
2144.0	10.825
2146.0	10.878
2148.0	11.073
2150.0	11.523
2152.0	11.900
2154.0	11.894
2156.0	11.853
2158.0	12.157
2160.0	12.419
2162.0	12.523
2164.0	12.602
2166.0	12.933
2168.0	13.145
2170.0	13.077
2172.0	13.245
2174.0	13.606
2176.0	13.797
2178.0	13.910
2180.0	14.122
2182.0	14.241
2184.0	14.221
2186.0	14.320
2188.0	14.427
2190.0	14.536
2192.0	14.584
2194.0	14.458
2196.0	14.549
2198.0	14.525
2200.0	14.684
2202.0	14.912
2204.0	14.903
2206.0	14.758
2208.0	14.676
2210.0	14.816
2212.0	14.778
2214.0	14.780
2216.0	14.798
2218.0	14.838
2220.0	14.957
2222.0	14.876
2224.0	14.830
2226.0	14.796
2228.0	14.629
2230.0	14.470
2232.0	14.355
2234.0	14.194
2236.0	14.339
2238.0	14.383
2240.0	14.081
2242.0	14.034
2244.0	13.826
2246.0	13.545
2248.0	13.635
2250.0	13.560
2252.0	13.345
2254.0	13.332
2256.0	13.144
2258.0	12.898
2260.0	12.738
2262.0	12.634
2264.0	12.517
2266.0	12.163
2268.0	11.894
2270.0	11.806
2272.0	11.615
2274.0	11.334
2276.0	11.308
2278.0	11.188
2280.0	10.809
2282.0	10.634
2284.0	10.521
2286.0	10.283
2288.0	10.056
2290.0	9.718
2292.0	9.491
2294.0	9.270
2296.0	9.059
2298.0	8.981
2300.0	8.620
2302.0	8.459
2304.0	8.340
2306.0	7.980
2308.0	7.635
2310.0	7.446
2312.0	7.355
2314.0	7.104
2316.0	6.821
2318.0	6.564
2320.0	6.383
2322.0	6.195
2324.0	5.908
2326.0	5.688
2328.0	5.508
2330.0	5.310
2332.0	5.095
2334.0	4.858
2336.0	4.680
2338.0	4.575
2340.0	4.462
2342.0	4.225
2344.0	4.051
2346.0	4.004
2348.0	3.702
2350.0	3.519
2352.0	3.331
2354.0	3.102
2356.0	3.036
2358.0	2.831
2360.0	2.737
2362.0	2.699
2364.0	2.519
2366.0	2.464
2368.0	2.364
2370.0	2.153
2372.0	2.106
2374.0	1.932
2376.0	1.863
2378.0	1.796
2380.0	1.622
2382.0	1.483
2384.0	1.302
2386.0	1.248
2388.0	1.212
2390.0	1.134
2392.0	1.009
2394.0	1.018
2396.0	1.051
2398.0	0.894
2400.0	0.732
2402.0	0.816
2404.0	0.877
2406.0	0.684
2408.0	0.587
2410.0	0.490
2412.0	0.522
2414.0	0.420
2416.0	0.455
2418.0	0.539
2420.0	0.272
2422.0	0.275
2424.0	0.418
2426.0	0.534
2428.0	0.368
2430.0	0.316
2432.0	0.377
2434.0	0.264
2436.0	0.357
2438.0	0.240
2440.0	0.244
2442.0	0.366
2444.0	0.029
2446.0	-0.063
2448.0	0.031
2450.0	0.064
2452.0	-0.002
2454.0	0.098
2456.0	0.262
2458.0	0.066
2460.0	0.067
2462.0	0.032
2464.0	-0.172
2466.0	-0.104
2468.0	0.035
2470.0	-0.037
2472.0	-0.291
2474.0	-0.294
2476.0	-0.261
2478.0	-0.224
2480.0	-0.114
2482.0	-0.198
2484.0	-0.079
2486.0	-0.130
2488.0	-0.002
2490.0	0.127
2492.0	-0.165
2494.0	-0.124
2496.0	-0.153
2498.0	-0.262
2500.0	-0.220
